param,Ground Energy,Gap energy,Sec Der of E0/punc,Order param,Binder,Susceptibility
0.65,-0.70844398866423097,0.058443988664220403,4428389.2646360965,0.24435439854768976,0.99881160890339948,14.466014275544541
0.6504,-0.70834569498668709,0.057945694986680119,-3.7494606226682663,0.24539571148242079,0.99879122179637925,14.449276518850484
0.6508,-0.7082480012228427,0.057448001222827894,-3.8071576897054911,0.24645175324994523,0.99877027955512199,14.432414464044669
0.6512,-0.70815091660422869,0.056950916604226354,-3.8663754146546125,0.24752290499128232,0.99874876086665587,14.415424009592686
0.6516,-0.70805445060568095,0.056454450605673556,-3.9271637257188559,0.24860956024601114,0.99872664339101314,14.398300898623143
0.652,-0.70795861295332962,0.055958612953324605,-3.9895753487944603,0.24971212539941662,0.99870390370315554,14.381040712093633
0.6524,-0.70786341363303384,0.055463413633033531,-4.0536645837128162,0.25083102014590786,0.99868051723119156,14.363638861627251
0.6528,-0.70776886289907159,0.05496886289906544,-4.1194876153022051,0.25196667796894756,0.99865645819062743,14.346090582005077
0.6532,-0.70767497128312784,0.054474971283120288,-4.1871029362082481,0.25311954663818037,0.99863169951436981,14.328390923295789
0.6536,-0.70758174960365383,0.053981749603652984,-4.2565712835639715,0.25429008872393682,0.99860621277818507,14.310534742606668
0.654,-0.70748920897558509,0.053489208975584068,-4.3279551956802607,0.25547878212985797,0.99857996812128447,14.292516695434925
0.6544,-0.70739736082034776,0.052997360820343231,-4.4013199117034674,0.2566861206438118,0.9985529341616951,14.27433122660192
0.6548,-0.70730621687629613,0.052506216876285539,-4.476733012124896,0.25791261450762026,0.99852507790603695,14.25597256074898
0.6552,-0.70721578920952655,0.052015789209517549,-4.5542644653469324,0.25915879100601125,0.99849636465330638,14.237434692373341
0.6556,-0.70712609022507111,0.051526090225069376,-4.6339869238436222,0.26042519507500606,0.99846675789223283,14.218711375383538
0.656,-0.70703713267852375,0.051037132678513619,-4.7159753832966089,0.26171238993027057,0.99843621919173897,14.199796112149166
0.6564,-0.70694892968803769,0.05054892968803093,-4.8003081437200308,0.26302095771544121,0.99840470808400894,14.180682142023949
0.6568,-0.70686149474685467,0.05006149474684729,-4.8870658148080111,0.26435150017090991,0.99837218193961508,14.161362429314698
0.6572,-0.70677484173620198,0.049574841736200637,-4.9763323236256838,0.265704639323051,0.99833859583412943,14.141829650672662
0.6576,-0.70668898493872123,0.049088984938714941,-5.0681941751390696,0.26708101819405761,0.9983039024055872,14.122076181879949
0.658,-0.70660393905230856,0.048603939052300538,-5.1627414654940367,0.26848130153237848,0.99826805170213084,14.102094084004252
0.6584,-0.70651971920453027,0.048119719204524736,-5.2600673139095306,0.26990617656369187,0.99823099101910606,14.081875088893813
0.6588,-0.70643634096752239,0.04763634096751479,-5.3602679073810577,0.27135635376227418,0.99819266472482659,14.061410583983665
0.6592,-0.70635382037337979,0.047153820373379562,-5.4634431861341,0.27283256764236463,0.99815301407416701,14.040691596384631
0.6596,-0.70627217393014674,0.046672173930144445,-5.5696963407099247,0.27433557756919991,0.9981119770090745,14.019708776224595
0.66,-0.70619141863832824,0.046191418638328763,-5.6791342906653881,0.27586616858899105,0.99806948794502459,13.998452379212582
0.6604,-0.70611157200799624,0.045711572007990586,-5.7918673399835825,0.27742515227728903,0.99802547754236703,13.97691224839375
0.6608,-0.7060326520764385,0.045232652076439228,-5.9080100059509277,0.27901336760452466,0.99797987246143405,13.955077795066334
0.6612,-0.70595467742648199,0.044754677426472322,-6.0276800580322742,0.28063168181769127,0.99793259510019361,13.932937978829012
0.6616,-0.70587766720533485,0.044277667205326221,-6.1509995721280575,0.28228099133676848,0.99788356331313666,13.910481286728112
0.662,-0.70580164114411892,0.043801641144118331,-6.2780945282429457,0.28396222266401694,0.99783269010999742,13.887695711475979
0.6624,-0.70572661957802774,0.043326619578027525,-6.4090947490185499,0.28567633330432385,0.99777988333279022,13.86456872871071
0.6628,-0.70565262346709623,0.042852623467088624,-6.544134147465229,0.28742431269400825,0.99772504530954764,13.841087273270636
0.6632,-0.70557967441762837,0.042379674417625246,-6.6833511050790548,0.28920718313561378,0.9976680724830107,13.81723771445664
0.6636,-0.70550779470433744,0.04190779470433792,-6.8268876373767853,0.29102600073521856,0.99760885501241348,13.793005830260171
0.664,-0.70543700729306846,0.041437007293068095,-6.9748902227729559,0.29288185633886299,0.99754727634635421,13.768376780534677
0.6644,-0.70536733586423517,0.040967335864232846,-7.1275094281882048,0.29477587646378833,0.99748321276461649,13.743335079094013
0.6648,-0.70529880483691043,0.040498804836910596,-7.2848999295383692,0.29670922421985768,0.99741653288664678,13.717864564723994
0.6652,-0.70523143939357424,0.040031439393567569,-7.4472204558551311,0.29868310021565442,0.99734709714424663,13.69194837109991
0.6656,-0.70516526550551073,0.03956526550550743,-7.6146338898688555,0.3006987434433176,0.99727475721586667,13.66556889560713
0.666,-0.70510030995886974,0.039100309958863044,-7.7873067669570446,0.30275743213534967,0.99719935541972105,13.638707767069226
0.6664,-0.70503660038131133,0.038636600381312558,-7.9654097836464643,0.30486048458553638,0.99712072406277297,13.61134581239906
0.6668,-0.70497416526931833,0.038174165269314386,-8.1491169296205044,0.30700925992576644,0.99703868474244428,13.583463022193071
0.6672,-0.70491303401603411,0.037713034016026548,-8.3386058434844017,0.30920515884885524,0.99695304759773828,13.555038515306583
0.6676,-0.70485323693968505,0.037253236939678525,-8.534057205542922,0.31144962426721812,0.99686361050624817,13.52605050245371
0.668,-0.70479480531248873,0.036794805312484802,-8.7356548886746168,0.31374414189535621,0.99677015822336512,13.496476248897428
0.6684,-0.70473777139007443,0.036337771390064777,-8.9435847420245409,0.31609024074330933,0.99667246145979227,13.466292036308172
0.6688,-0.70468216844121878,0.035882168441220275,-9.1580356303602457,0.31848949350677985,0.99657027589329905,13.435473123890503
0.6692,-0.70462803077806391,0.035428030778060116,-9.3791971299797297,0.32094351683843741,0.99646334111046475,13.403993708896845
0.6696,-0.70457539378644984,0.034975393786446207,-9.6072607282549143,0.3234539714827504,0.99635137947402874,13.371826886679179
0.67,-0.70452429395655247,0.034524293956552765,-9.8424181211739779,0.32602256225601411,0.99623409491128712,13.338944610448136
0.6704,-0.70447476891355421,0.034074768913545439,-10.084860688075423,0.32865103785092942,0.99611117161888529,13.305317650947327
0.6708,-0.70442685744826616,0.033626857448267655,-10.334779234603047,0.33134119044317717,0.99598227267928119,13.270915556286516
0.6712,-0.70438059954765553,0.03318059954765229,-10.592362392693758,0.33409485507634457,0.99584703858408286,13.235706612209734
0.6716,-0.70433603642502773,0.032736036425017545,-10.857795611023903,0.33691390879881183,0.99570508565951388,13.199657803125497
0.672,-0.70429321054969773,0.032293210549693474,-11.131261454895139,0.33980026952475556,0.99555600438931902,13.162734774269419
0.6724,-0.70425216567620053,0.031852165676196753,-11.412935737520456,0.34275589458909655,0.99539935763060039,13.12490179542579
0.6728,-0.7042129468724212,0.031412946872416581,-11.70298876799643,0.34578277896457721,0.99523467871831128,13.086121726687514
0.6732,-0.70417560054684492,0.030975600546839677,-12.001582071185112,0.34888295310657941,0.99506146945454377,13.046355986803842
0.6736,-0.70414017447440003,0.030540174474400605,-12.308867676183581,0.35205848039001797,0.99487919797922142,13.005564524724964
0.674,-0.70410671782078316,0.030106717820784779,-12.624985553324223,0.3553114541001462,0.99468729651951859,12.963705795033251
0.6744,-0.70407528116485474,0.029675281164854739,-12.950062183663249,0.35864399393768343,0.9944851590161774,12.920736738025344
0.6748,-0.70404591651887594,0.029245916518873205,-13.284208131954074,0.36205824199726094,0.99427213862597108,12.876612765291268
0.6752,-0.70401867734619827,0.028818677346199584,-13.627515492960811,0.36555635817634019,0.99404754510093096,12.831287751730644
0.6756,-0.70399361857599962,0.028393618575995649,-13.980055695399642,0.3691405149714907,0.99381064204654046,12.784714035029369
0.676,-0.70397079661471218,0.02797079661470836,-14.341876475140452,0.37281289161779518,0.99356064406308586,12.736842423721596
0.6764,-0.7039502693536609,0.027550269353652124,-14.712999084964395,0.37657566752739591,0.99329671377665407,12.687622215054686
0.6768,-0.70393209617246322,0.027132096172456488,-15.093415077775717,0.38043101498364346,0.99301795876900201,12.637001223973357
0.6772,-0.70391633793767772,0.026716337937675694,-15.483083102852106,0.38438109104864959,0.99272342841869687,12.584925824634555
0.6776,-0.70390305699618883,0.026303056996191732,-15.881925171241164,0.38842802864407711,0.99241211066960366,12.531341005957469
0.678,-0.70389231716272727,0.025892317162718781,-16.289823517203331,0.39257392676828917,0.99208292874698323,12.476190442798352
0.6784,-0.70388418370102834,0.025484183701028673,-16.70661629922688,0.39682083981694366,0.99173473784625221,12.419416584418894
0.6788,-0.70387872329793744,0.025078723297919381,-17.132093476131558,0.40117076597990964,0.99136632182479556,12.360960761978429
0.6792,-0.70387600402980255,0.02467600402979675,-17.565994538366795,0.40562563469391788,0.99097638993322157,12.300763316830967
0.6796,-0.70387609532079398,0.024276095320789559,-18.008001254871488,0.41018729313920221,0.99056357362901304,12.23876375142931
0.68,-0.7038790678919864,0.023879067891988237,-18.457736918702722,0.4148574917778613,0.99012642352277491,12.174900904643867
0.6804,-0.7038849937010857,0.02348499370108148,-18.914760278537869,0.41963786894429689,0.98966340651499052,12.109113153261193
0.6808,-0.70389394587182985,0.023093945871826227,-19.37856213375926,0.42452993451114923,0.9891729031895331,12.041338641362549
0.6812,-0.70390599861251546,0.022705998612509881,-19.848561715334654,0.42953505267014391,0.98865320553885816,11.97151553916118
0.6816,-0.70392122712307559,0.022321227123069609,-20.324102938175201,0.43465442388482234,0.98810251510478231,11.899582332707682
0.682,-0.7039397074901057,0.021939707490101434,-20.804451087489724,0.43988906609185108,0.98751894162783149,11.825478145642855
0.6824,-0.70396151656930983,0.021561516569313266,-21.288790276274085,0.44523979524830509,0.98690050230717807,11.74914309389289
0.6828,-0.7039867318549583,0.021186731854961116,-21.776220889762044,0.45070720534649888,0.98624512178163837,11.670518673824713
0.6832,-0.70401543133594902,0.020815431335937107,-22.265757476910949,0.45629164804123884,0.98555063295015444,11.589548183955118
0.6836,-0.70404769333813588,0.020447693338132011,-22.756329214200377,0.46199321206044963,0.98481477875683199,11.506177179784546
0.684,-0.70408359635299722,0.020083596352995947,-23.246777372434735,0.46781170259665367,0.98403521507066771,11.42035396072548
0.6844,-0.70412321885223794,0.019723218852238489,-23.735858127474785,0.47374662090219222,0.9832095147932236,11.332030087430716
0.6848,-0.7041666390887793,0.019366639088773008,-24.222243372350931,0.47979714433743731,0.98233517332780729,11.241160927068393
0.6852,-0.70421393488426032,0.019013934884256511,-24.70452399738133,0.48596210714588006,0.98140961554083295,11.147706223268221
0.6856,-0.70426518340358091,0.01866518340357648,-25.181213468313217,0.49223998225106191,0.98043020433954842,11.051630686602641
0.686,-0.70432046091705647,0.018320460917058523,-25.650754256173968,0.49862886439130272,0.97939425097901101,10.952904600522499
0.6864,-0.70437984255121322,0.017979842551208658,-26.111523870378733,0.50512645492150021,0.97829902719549389,10.85150443674884
0.6868,-0.7044434020291892,0.017643402029184685,-26.561843583360314,0.51173004862254778,0.97714177924200007,10.747413473162034
0.6872,-0.70451121140213857,0.017311211402141868,-26.999988028779626,0.51843652286228858,0.97591974387462332,10.640622406322201
0.6876,-0.70458334077317231,0.016983340773168321,-27.42419627122581,0.52524232944859706,0.97463016630568544,10.531129949904221
0.688,-0.70465985801560937,0.016659858015613205,-27.832684567198157,0.53214348950501311,0.97327032010075276,10.418943409555677
0.6884,-0.70474082848757713,0.016340828487581782,-28.223659763112664,0.53913559167811365,0.97183752895279063,10.304079224083281
0.6888,-0.70482631474510715,0.016026314745098635,-28.595334647223353,0.54621379395882086,0.97032919021732356,10.186563462385505
0.6892,-0.70491637625618075,0.015716376256174613,-28.945943700149655,0.55337282935973886,0.96874280003983326,10.066432265327924
0.6896,-0.7050110691182464,0.015411069118242526,-29.273759773001075,0.56060701564462434,0.96707597985056393,9.9437322217231827
0.69,-0.70511044578187598,0.01511044578186882,-29.577111741527915,0.56791026924907484,0.96532650394509101,9.8185206678470571
0.6904,-0.70521455478338424,0.014814554783386558,-29.854401605203748,0.57527612346613632,0.96349232781297423,9.6908659004892233
0.6908,-0.70532344048914941,0.014523440489140671,-30.104122808203101,0.58269775090120612,0.96157161682289205,9.5608472943642084
0.6912,-0.70543714285456405,0.01423714285456168,-30.324876656755805,0.59016799012148169,0.95956277482481911,9.4285553159139734
0.6916,-0.7055556972002438,0.013955697200240036,-30.515389626845717,0.59767937634634105,0.95746447218859709,9.2940914269845489
0.692,-0.70567913400826388,0.013679134008257487,-30.674528975039721,0.60522417594308775,0.95527567276719372,9.1575678736129191
0.6924,-0.70580747874091987,0.013407478740917633,-30.801316378638148,0.61279442441164944,0.95299565925389407,9.0191073571634721
0.6928,-0.70594075168419645,0.013140751684200591,-30.894941657781601,0.62038196746566387,0.95062405639711889,8.878842587232036
0.6932,-0.7060789678181385,0.012878967818133913,-30.954772438853979,0.62797850474563199,0.94816085154676433,8.7369157180819936
0.6936,-0.70622213671567058,0.012622136715674359,-30.98036383651197,0.63557563563903552,0.94560641203157725,8.5934776727514084
0.694,-0.70637026247141665,0.012370262471420701,-30.971463749185205,0.64316490662981063,0.9429614989097892,8.4486873613814168
0.6944,-0.70652334366136249,0.012123343661368025,-30.928017074242234,0.65073785956169594,0.94022727669319872,8.3027108026075016
0.6948,-0.70668137333404024,0.011881373334044154,-30.850166786462069,0.65828608017608492,0.93740531871746213,8.1557201589867869
0.6952,-0.7068443390334036,0.011644339033400009,-30.738252045586705,0.66580124627445036,0.9344976079171986,8.0078926993583419
0.6956,-0.70701222285309417,0.011412222853091847,-30.592804346233606,0.67327517486349797,0.93150653285926843,7.8594097025952898
0.696,-0.70718500152148045,0.01118500152148294,-30.41454079002142,0.68069986766218515,0.92843487899009203,7.7104553184581253
0.6964,-0.70736264651639302,0.010962646516396446,-30.204354865476489,0.68806755438546718,0.92528581515865926,7.5612154020965558
0.6968,-0.70754512420808402,0.010745124208088375,-29.96330532990396,0.69537073327169974,0.92206287558107725,7.4118763391099565
0.6972,-0.70773239602862803,0.010532396028629543,-29.692603165283799,0.70260220837882614,0.9187699375146855,7.2626238781009773
0.6976,-0.70792441866567868,0.010324418665682011,-29.39359688013792,0.70975512324805634,0.9154111950017858,7.1136419871436258
0.698,-0.70812114427823025,0.010121144278231409,-29.067756336182356,0.71682299060977506,0.91199112912596847,6.965111749760192
0.6984,-0.70832252073179558,0.0099225207317917841,-28.716655999422073,0.72379971788937225,0.90851447529228979,6.8172103147661538
0.6988,-0.70852849185032085,0.0097284918503180995,-28.341957239434123,0.73067962835403499,0.90498618809581011,6.67010991282788
0.6992,-0.70873899768200443,0.0095389976820002831,-27.945390490815043,0.73745747782562798,0.9014114043786069,6.5239769507875609
0.6996,-0.70895397477616662,0.009353974776161289,-27.528737440705299,0.74412846696418433,0.8977954050942738,6.3789711928749879
0.7,-0.70917335646831925,0.0091733564683177393,-27.093813477084041,0.75068824920202148,0.89414357659993804,6.2352450358571883
0.7004,-0.70939707317062828,0.0089970731706250362,-26.642450859770179,0.75713293447675767,0.89046137198058972,6.0929428830756081
0.7008,-0.70962505266507458,0.0088250526650788252,-26.176482720300555,0.76345908897112502,0.88675427298061826,5.9522006202537456
0.7012,-0.70985722039675625,0.008657220396758758,-25.697727877646685,0.76966373111895592,0.88302775307403758,5.8131451939539405
0.7016,-0.71009349976489833,0.0084934997649037669,-25.207977320998907,0.77574432417676575,0.87928724215179099,5.6758942917265607
0.702,-0.71033381240941151,0.0083338124094095578,-24.708981407806277,0.78169876569266949,0.87553809324213216,5.540556121290023
0.7024,-0.71057807849095,0.0081780784909546433,-24.202439144253731,0.78752537422532198,0.87178555161307481,5.4072292846137318
0.7028,-0.71082621696275172,0.008026216962755961,-23.689988264814019,0.79322287367703714,0.86803472653617186,5.2760027415416273
0.7032,-0.71107814583267581,0.0078781458326766529,-23.173197444528341,0.79879037561045407,0.86429056591909892,5.1469558565431104
0.7036,-0.71133378241419121,0.0077337824141956446,-22.653559174388647,0.80422735991221495,0.86055783394650764,5.02015852144158
0.704,-0.7115930435651745,0.0075930435651726524,-22.132484912872314,0.80953365415726375,0.85684109180231505,4.8956713464032662
0.7044,-0.71185584591374407,0.00745584591373738,-21.61130098067224,0.81470941201098235,0.85314468148579026,4.77354591114028
0.7048,-0.71212210607047033,0.0073221060704694585,-21.091245515272021,0.81975509098498966,0.84947271267943236,4.65382506816385
0.7052,-0.71239174082647927,0.0071917408264783322,-20.573467725887895,0.82467142983800379,0.84582905257886865,4.5365432899736806
0.7056,-0.71266466733732436,0.0070646673373238045,-20.059026658535004,0.82945942588717703,0.84221731855389159,4.4217270522522147
0.706,-0.71294080329243481,0.0069408032924315188,-19.548892086371779,0.83412031246580631,0.83864087347769001,4.3093952454950157
0.7064,-0.71322006707027907,0.0068200670702749377,-19.043945601209998,0.8386555367353663,0.83510282353486276,4.1995596079150008
0.7068,-0.7135023778794195,0.0067023778794172983,-18.544982772320509,0.84306673803101817,0.83160601830018865,4.0922251729731185
0.7072,-0.71378765588580351,0.0065876558857880241,-18.052715748548508,0.84735572689072836,0.82815305286864427,3.9873907254735186
0.7076,-0.71407582232670752,0.0064758223267036286,-17.567775914445519,0.85152446489252465,0.82474627180995808,3.8850492607334615
0.708,-0.71436679961175786,0.0063667996117554582,-17.090718317776918,0.85557504539816898,0.82138777472066837,3.7851884419763047
0.7084,-0.71466051141173892,0.0062605114117367799,-16.622024443000555,0.85950967527884692,0.81807942314947313,3.6877910516947039
0.7088,-0.71495688273563074,0.0061568827356344169,-16.162107035517693,0.86333065767629491,0.81482284867949384,3.5928354333552188
0.7092,-0.71525583999664832,0.0060558399966462728,-15.711313754320145,0.86704037583478788,0.81161946196017121,3.5002959203647559
0.7096,-0.71555731106786635,0.0059573110678619035,-15.269931575283408,0.87064127802127977,0.80847046249490673,3.410143249795289
0.71,-0.71586122532813667,0.0058612253281425941,-14.838191429153085,0.87413586353679862,0.80537684900410633,3.3223449588560023
0.7104,-0.71616751369903575,0.0057675136990422704,-14.41627168096602,0.87752666980971872,0.80233943019831266,3.2368657625656634
0.7108,-0.71647610867340394,0.0056761086734020694,-14.004303077235818,0.88081626054992002,0.79935883581263545,3.1536679115202144
0.7112,-0.71678694433626411,0.0055869443362465132,-13.602372083812952,0.88400721493558887,0.79643552776829518,3.0727115289907894
0.7116,-0.71709995637865787,0.0054999563786504169,-13.210525678470731,0.8871021177952505,0.79356981134470617,2.9939549269699679
