param,Ground Energy,Gap energy,Sec Der of E0/punc,Order param,Binder,Susceptibility
0.65,-0.73600192513482721,0.086001925134827295,4599997.2931194492,0.47529681819748609,0.98298866593582879,7.1454732425662604
0.6504,-0.73600428337054291,0.085604283370542822,-5.9781891144812107,0.47696525327876849,0.98274854564758285,7.1264220218147543
0.6508,-0.73600759811651717,0.085207598116517236,-6.0103654712438583,0.4786407720558275,0.98250485659347131,7.107280374853719
0.6512,-0.73601187452096706,0.084811874520967168,-6.0425557214766741,0.48032335845641771,0.98225755065224141,7.0880479544331711
0.6516,-0.73601711773433209,0.084417117734332692,-6.0747552160173655,0.48201299511388629,0.98200657933615054,7.0687244248742109
0.652,-0.73602333290853184,0.084023332908532034,-6.1069592610001564,0.4837096633480697,0.98175189379936312,7.0493094624266472
0.6524,-0.73603052519621359,0.083630525196214167,-6.1391630209982395,0.48541334314637458,0.98149344484683165,7.0298027556296008
0.6528,-0.73603869974997849,0.083238699749978995,-6.1713616121560335,0.48712401314505788,0.98123118294366951,7.0102040056751127
0.6532,-0.7360478617216013,0.082847861721601634,-6.2035500388592482,0.48884165061068546,0.98096505822503377,6.99051292677483
0.6536,-0.73605801626123035,0.082458016261230838,-6.2357232328504324,0.49056623142183309,0.98069502050651924,6.9707292465291797
0.654,-0.73606916851657689,0.082069168516577529,-6.2678760159760714,0.49229773005102045,0.9804210192950793,6.9508527062991954
0.6544,-0.736081323632086,0.081681323632086245,-6.3000031597912312,0.49403611954689725,0.98014300380047981,6.9308830615804702
0.6548,-0.73609448674810063,0.081294486748101358,-6.3320992887020111,0.49578137151671825,0.97986092294729676,6.9108200823793675
0.6552,-0.73610866300000166,0.080908663000002434,-6.3641590122133493,0.49753345610910404,0.97957472538746559,6.8906635535909331
0.6556,-0.73612385751734466,0.080523857517345254,-6.396176790818572,0.49929234199712996,0.97928435951339077,6.8704132753784632
0.656,-0.73614007542297433,0.080140075422974966,-6.4281470440328121,0.50105799636174042,0.97898977347162486,6.8500690635544768
0.6564,-0.73615732183213123,0.079757321832131911,-6.460064085200429,0.50283038487552045,0.97869091517712525,6.829630749962849
0.6568,-0.73617560185154141,0.079375601851542354,-6.4919221382588148,0.50460947168685388,0.9783877323280924,6.8090981828615762
0.6572,-0.73619492057849378,0.078994920578494443,-6.5237153694033623,0.50639521940446452,0.97808017242140266,6.7884712273064833
0.6576,-0.73621528309990525,0.078615283099906397,-6.555437833070755,0.50818758908237527,0.9777681827686393,6.767749765535056
0.658,-0.73623669449137008,0.078236694491371161,-6.5870835427194834,0.50998654020532974,0.97745171051272273,6.7469336973501308
0.6584,-0.73625915981620149,0.077859159816202617,-6.6186463851481676,0.51179203067463208,0.97713070264515967,6.7260229405036691
0.6588,-0.73628268412445452,0.07748268412445547,-6.6501202005892992,0.5136040167945084,0.97680510602389914,6.7050174310796589
0.6592,-0.73630727245193972,0.077107272451941156,-6.6814987622201443,0.51542245325893965,0.97647486739181455,6.6839171238762178
0.6596,-0.73633292981922682,0.076732929819227857,-6.7127757295966148,0.51724729313903672,0.97613993339580718,6.6627219927865831
0.66,-0.73635966123063079,0.07635966123063187,-6.7439447231590748,0.51907848787095112,0.97580025060653763,6.6414320311782307
0.6604,-0.7363874716731903,0.07598747167319142,-6.7749992851167917,0.52091598724435817,0.97545576553878843,6.6200472522704645
0.6608,-0.73641636611563543,0.075616366115636713,-6.8059328719973564,0.52275973939152165,0.97510642467245923,6.5985676895094549
0.6612,-0.73644634950734,0.075246349507341659,-6.8367388881742954,0.52460969077696962,0.97475217447419693,6.5769933969409511
0.6616,-0.7364774267772668,0.074877426777268052,-6.8674106728285551,0.52646578618781648,0.97439296141965726,6.5553244495796008
0.662,-0.73650960283290123,0.074509602832902755,-6.8979414999485016,0.52832796872470922,0.97402873201640749,6.5335609437754316
0.6624,-0.73654288255917555,0.074142882559177004,-6.9283245708793402,0.53019617979347788,0.97365943282745693,6.5117029975761014
0.6628,-0.736577270817381,0.073777270817382501,-6.9585530236363411,0.53207035909745548,0.97328501049542537,6.4897507510854293
0.6632,-0.7366127724440702,0.07341277244407185,-6.9886199831962585,0.53395044463053809,0.97290541176733691,6.4677043668171104
0.6636,-0.73664939224995651,0.073049392249958101,-7.0185184609144926,0.53583637267096662,0.97252058352004334,6.4455640300435739
0.664,-0.73668713501879679,0.072687135018798643,-7.048241451382637,0.5377280777758755,0.97213047278626974,6.4233299491397231
0.6644,-0.73672600550626932,0.072326005506270663,-7.0777819007635117,0.53962549277660965,0.97173502678127677,6.4010023559205429
0.6648,-0.73676600843884599,0.071966008438847817,-7.1071326769888401,0.5415285487748599,0.9713341929301329,6.3785815059728757
0.6652,-0.73680714851265083,0.071607148512652707,-7.1362866535782814,0.543437175139597,0.97092791889559293,6.3560676789804198
0.6656,-0.73684943039232043,0.071249430392322122,-7.1652366239577532,0.5453512995048565,0.97051615260657043,6.3334611790417457
0.666,-0.73689285870984966,0.070892858709851514,-7.1939753424376249,0.54727084776838142,0.97009884228719667,6.3107623349808772
0.6664,-0.73693743806343381,0.070537438063435598,-7.2224955689162016,0.54919574409113858,0.96967593648645578,6.2879715006498884
0.6668,-0.73698317301630867,0.070183173016310496,-7.2507899813354015,0.55112591089771845,0.96924738410838818,6.2650890552233989
0.6672,-0.73703006809558058,0.069830068095582676,-7.2788512632250786,0.55306126887767604,0.96881313444283934,6.2421154034839565
0.6676,-0.73707812779105464,0.069478127791056665,-7.3066720701754093,0.55500173698777333,0.96837313719675366,6.2190509760984627
0.668,-0.73712735655405981,0.069127356554062214,-7.3342450074851513,0.55694723245518574,0.96792734252598878,6.1958962298848244
0.6684,-0.73717775879626624,0.068777758796268351,-7.3615626990795135,0.55889767078165686,0.96747570106764091,6.1726516480685758
0.6688,-0.7372293388885045,0.068429338888506663,-7.3886177372187376,0.56085296574864862,0.96701816397285756,6.1493177405288186
0.6692,-0.73728210115958059,0.068082101159582797,-7.4154027011245489,0.56281302942346512,0.96655468294012659,6.1258950440333138
0.6696,-0.73733604989508905,0.06773604989509141,-7.4419101718813181,0.56477777216639513,0.96608521024901695,6.102384122462043
0.67,-0.73739118933622472,0.06739118933622712,-7.4681327119469643,0.56674710263887551,0.96560969879435044,6.0787855670188709
0.6704,-0.73744752367859434,0.067047523678596566,-7.4940629117190838,0.56872092781267625,0.96512810212078837,6.055099996430986
0.6708,-0.73750505707102987,0.066705057071032248,-7.5196933280676603,0.57069915298012797,0.96464037445780493,6.031328057135636
0.6712,-0.73756379361439783,0.066363793614400257,-7.5450165700167418,0.57268168176542922,0.96414647075501858,6.007470423453408
0.6716,-0.73762373736041698,0.066023737360419554,-7.5700252298265696,0.57466841613697095,0.9636463467178723,5.9835277977482946
0.672,-0.73768489231047285,0.065684892310475362,-7.594711909070611,0.57665925642079019,0.96313995884361314,5.9595009105734142
0.6724,-0.73774726241443433,0.065347262414436891,-7.6190692782402039,0.5786541013150468,0.96262726445756674,5.9353905208025743
0.6728,-0.73781085156948023,0.065010851569482941,-7.6430899687111378,0.58065284790563088,0.96210822174965871,5.9111974157468659
0.6732,-0.73787566361892087,0.064675663618923518,-7.6667667049914598,0.58265539168283742,0.96158278981116352,5.8869224112559744
0.6736,-0.73794170235103451,0.064341702351037089,-7.6900921836495399,0.58466162655915399,0.96105092867164577,5.86256635180409
0.674,-0.73800897149789746,0.064008971497900302,-7.7130592036992311,0.58667144488813772,0.96051259933606281,5.8381301105596366
0.6744,-0.73807747473423324,0.063677474734236017,-7.7356605567038059,0.58868473748439609,0.95996776382199522,5.8136145894388722
0.6748,-0.73814721567625774,0.063347215676260671,-7.7578891068696976,0.59070139364468577,0.95941638519696537,5.7890207191425089
0.6752,-0.73821819788053966,0.063018197880542637,-7.7797377649694681,0.59272130117009025,0.95885842761582096,5.7643494591756825
0.6756,-0.73829042484286378,0.062690424842866688,-7.8011994957923889,0.5947443463893326,0.95829385635812814,5.7396017978501543
0.676,-0.73836389999710728,0.062363899997110339,-7.8222673386335373,0.59677041418315913,0.95772263786555634,5.7147787522691944
0.6764,-0.73843862671412486,0.062038626714127854,-7.8429343774914742,0.59879938800983534,0.95714473977920222,5.6898813682943397
0.6768,-0.73851460830064297,0.061714608300646345,-7.8631937820464373,0.6008311499317357,0.95656013097681702,5.6649107204938813
0.6772,-0.73859184799816602,0.061391847998169102,-7.8830387964844704,0.60286558064300588,0.95596878160990162,5.6398679120730062
0.6776,-0.73867034898189665,0.06107034898189978,-7.9024627469480038,0.60490255949831695,0.95537066314062036,5.6147540747850107
0.678,-0.73875011435966675,0.060750114359670038,-7.9214590284973383,0.60694196454268523,0.9547657483784957,5.5895703688235958
0.6784,-0.73883114717088116,0.06043114717088427,-7.9400211423635483,0.60898367254234487,0.95415401151684409,5.564317982696104
0.6788,-0.73891345038547851,0.060113450385481437,-7.9581426847726107,0.61102755901666672,0.95353542816890491,5.5389981330772189
0.6792,-0.73899702690290525,0.059797026902908446,-7.9758173208683729,0.61307349827112256,0.95290997540361844,5.5136120646431914
0.6796,-0.73908187955110349,0.059481879551106731,-7.9930388797074556,0.61512136343126367,0.9522776317810121,5.4881610498863926
0.68,-0.73916801108552244,0.059168011085525718,-8.0098012201488018,0.61717102647770083,0.9516383773871474,5.4626463889099703
0.6804,-0.73925542418813672,0.058855424188140271,-8.0260983798652887,0.61922235828207206,0.95099219386858536,5.4370694092027447
0.6808,-0.73934412146649187,0.058544121466495236,-8.0419244710355997,0.62127522864398121,0.95033906446632099,5.4114314653939859
0.6812,-0.73943410545276234,0.058234105452765861,-8.0572737492620945,0.62332950632888939,0.94967897404914259,5.3857339389881265
0.6816,-0.73952537860283296,0.057925378602836419,-8.0721405800431967,0.62538505910692899,0.94901190914637101,5.3599782380794316
0.682,-0.73961794329539643,0.057617943295400043,-8.0865194760262966,0.62744175379262923,0.94833785797993297,5.334165797046607
0.6824,-0.7397118018310761,0.057311801831079423,-8.1004050727933645,0.62949945628551507,0.94765681049572104,5.3082980762272216
0.6828,-0.73980695643156758,0.057006956431571276,-8.1137921307235956,0.63155803161157598,0.94696875839419492,5.2823765615721783
0.6832,-0.73990340923879983,0.056703409238803459,-8.1266755815595388,0.63361734396555491,0.94627369516017978,5.2564027642801783
0.6836,-0.74000116231412516,0.05640116231412895,-8.139050479978323,0.63567725675405329,0.94557161609181306,5.2303782204123195
0.684,-0.7401002176375272,0.056100217637531147,-8.1509120501577854,0.63773763263940009,0.9448625183285978,5.2043044904868019
0.6844,-0.74020057710685705,0.055800577106860594,-8.1622556354850531,0.63979833358427551,0.94414640087851698,5.1781831590542362
0.6848,-0.74030224253708854,0.05550224253709235,-8.1730767861008644,0.64185922089703373,0.94342326464416759,5.1520158342534055
0.6852,-0.74040521565960571,0.055205215659609674,-8.1833711750805378,0.64392015527774282,0.94269311244785747,5.1258041473475489
0.6856,-0.74050949812151068,0.054909498121514799,-8.1931346450001001,0.6459809968648299,0.94195594905564728,5.0995497522420266
0.686,-0.74061509148495919,0.054615091484963352,-8.2023632396012545,0.64804160528237853,0.94121178120026949,5.0732543249828623
0.6864,-0.74072199722652599,0.054321997226530083,-8.2110531143844128,0.65010183968798207,0.94046061760290101,5.046919563236905
0.6868,-0.74083021673659122,0.054030216736595471,-8.2192006632685661,0.65216155882115978,0.93970246899374132,5.0205471857538466
0.6872,-0.74093975131876244,0.053739751318766293,-8.226802421733737,0.65422062105226653,0.9389373481313581,4.994138931810145
0.6876,-0.74105060218932117,0.053450602189325513,-8.2338551040738821,0.65627888443187787,0.9381652698207672,4.9676965606357095
0.688,-0.74116277047669665,0.053162770476700927,-8.2403556201606989,0.65833620674060433,0.93738625093020367,4.9412218508232142
0.6884,-0.74127625722097124,0.052876257220975664,-8.2463010717183352,0.6603924455393021,0.93660031040655123,4.914716599720709
0.6888,-0.74139106337341731,0.052591063373421676,-8.2516887430101633,0.66244745821962292,0.93580746928940173,4.8881826228080438
0.6892,-0.74150718979606234,0.052307189796066744,-8.2565160728991032,0.66450110205488222,0.93500775072370423,4.8616217530573049
0.6896,-0.74162463726127914,0.052024637261283702,-8.2607807889580727,0.66655323425120383,0.93420117997097296,4.8350358402777927
0.69,-0.741743406451422,0.051743406451426166,-8.2644807044416666,0.66860371199887403,0.93338778441903691,4.8084267504463449
0.6904,-0.74186349795847739,0.05146349795848193,-8.2676138859242201,0.67065239252388598,0.9325675935902904,4.7817963650230739
0.6908,-0.74198491228375485,0.051184912283759321,-8.2701786104589701,0.67269913313963936,0.93174063914842364,4.7551465802534381
0.6912,-0.7421076498376098,0.050907649837614533,-8.2721733171492815,0.67474379129871709,0.9309069549036133,4.7284793064569053
0.6916,-0.74223171093919582,0.050631710939200603,-8.2735966891050339,0.67678622464472726,0.93006657681614879,4.7017964673031161
0.692,-0.74235709581625187,0.050357095816256692,-8.2744475714862347,0.6788262910641647,0.92921954299846932,4.6750999990757736
0.6924,-0.74248380460491958,0.050083804604924453,-8.274725042283535,0.68086384873822026,0.9283658937156074,4.6483918499253081
0.6928,-0.74261183734959391,0.049811837349598709,-8.2744283732026815,0.68289875619452889,0.92750567138400963,4.6216739791105761
0.6932,-0.74274119400280814,0.049541194002812872,-8.2735570520162582,0.68493087235878802,0.92663892056873109,4.5949483562305176
0.6936,-0.7428718744251509,0.049271874425155349,-8.2721107564866543,0.68696005660622195,0.92576568797898318,4.5682169604461853
0.694,-0.74300387838521453,0.049003878385219579,-8.2700893934816122,0.68898616881282537,0.92488602246203855,4.5414817796941884
0.6944,-0.74313720555958118,0.048737205559586272,-8.2674930617213249,0.69100906940636175,0.92399997499547581,4.5147448098919076
0.6948,-0.74327185553283781,0.0484718555328425,-8.264322055503726,0.69302861941706151,0.92310759867776593,4.4880080541354417
0.6952,-0.74340782779762316,0.048207827797628222,-8.2605769224464893,0.69504468052799229,0.92220894871719239,4.4612735218907558
0.6956,-0.74354512175471588,0.047945121754720987,-8.2562583647668362,0.69705711512503143,0.92130408241911743,4.434543228179157
0.696,-0.7436837367131468,0.047683736713151958,-8.2513673137873411,0.69906578634643468,0.92039305917157954,4.4078191927572759
0.6964,-0.74382367189034826,0.047423671890353347,-8.2459049168974161,0.70107055813192043,0.91947594042924718,4.3811034392929358
0.6968,-0.74396492641233636,0.047164926412341601,-8.2398725152015686,0.70307129527125511,0.91855278969572618,4.3543979945373348
0.6972,-0.74410749931392706,0.046907499313932455,-8.2332716509699821,0.70506786345229699,0.91762367250422483,4.3277048874940967
0.6976,-0.74425138953898173,0.046651389538986621,-8.2261040732264519,0.70706012930845186,0.91668865639660224,4.3010261485864527
0.698,-0.74439659594068808,0.046396595940693786,-8.2183717451989651,0.70904796046548857,0.9157478109008097,4.2743638088229217
0.6984,-0.74454311728187372,0.046143117281879142,-8.2100767940282822,0.7110312255877127,0.9148012075067381,4.247719898962524
0.6988,-0.74469095223534632,0.045890952235351778,-8.2012215964496136,0.71300979442341983,0.91384891964049708,4.2210964486800755
0.6992,-0.74484009938427442,0.045640099384279931,-8.1918086837977171,0.7149835378496201,0.91289102263714683,4.19449548573263
0.6996,-0.744990557222592,0.04539055722259755,-8.181840805336833,0.71695232791598507,0.91192759371190069,4.1679190351273689
0.7,-0.74514232415543846,0.045142324155444058,-8.1713208928704262,0.71891603788799341,0.91095871192983291,4.1413691182922667
0.7004,-0.74529539849962756,0.044895398499633532,-8.1602520644664764,0.72087454228922709,0.90998445817411588,4.1148477522498563
0.7008,-0.74544977848414684,0.044649778484152858,-8.1486376505345106,0.72282771694278869,0.90900491511282266,4.0883569487951723
0.7012,-0.74560546225069013,0.044405462250695749,-8.1364811211824417,0.72477543901183961,0.90802016716431355,4.0618987136782483
0.7016,-0.74576244785421275,0.044162447854218523,-8.1237861923873425,0.72671758703916434,0.90703030046126254,4.0354750457922854
0.702,-0.74592073326352626,0.043920733263532075,-8.1105566881597042,0.72865404098580822,0.90603540281334116,4.0090879363679903
0.7024,-0.74608031636190975,0.043680316361915494,-8.0967966802418232,0.73058468226869888,0.90503556366861271,3.982739368174951
0.7028,-0.7462411949477622,0.043441194947768214,-8.0825103390961885,0.73250939379726077,0.90403087407366611,3.9564313147305463
0.7032,-0.74640336673526875,0.043203366735274806,-8.06770209223032,0.73442806000898841,0.90302142663254048,3.9301657395173724
0.7036,-0.74656682935510987,0.042966829355115976,-8.0523764453828335,0.73634056690394845,0.90200731546447777,3.9039445952095595
0.704,-0.7467315803551825,0.04273158035518887,-8.0365381371229887,0.73824680207820281,0.9009886361605518,3.8777698229088906
0.7044,-0.74689761720135683,0.042497617201362914,-8.0201920215040445,0.74014665475611607,0.89996548573922175,3.8516433513912607
0.7048,-0.74706493727825485,0.042264937278260639,-8.0033431351184845,0.7420400158215309,0.89893796260086045,3.8255670963642285
0.7052,-0.74723353789005442,0.04203353789006059,-7.9859966523945332,0.7439267778478218,0.89790616648129107,3.7995429597359016
0.7056,-0.74740341626131868,0.041803416261324777,-7.9681579079478979,0.74580683512675428,0.89687019840441295,3.7735728288963912
0.706,-0.74757456953784818,0.041574569537854544,-7.9498323556035757,0.74768008369620231,0.8958301606339335,3.7476585760116947
0.7064,-0.7477469947875548,0.041346994787560987,-7.931025629863143,0.74954642136664196,0.89478615662429217,3.7218020573312258
0.7068,-0.74792068900136188,0.041120689001368116,-7.9117434658110142,0.75140574774647428,0.89373829097080304,3.6960051125090376
0.7072,-0.74809564909412352,0.040895649094129793,-7.8919917326420546,0.75325796426611447,0.89268666935908991,3.6702695639395242
0.7076,-0.74827187190556244,0.040671871905568979,-7.8717764597386122,0.75510297420087735,0.89163139851385398,3.6445972161078957
0.708,-0.74844935420123482,0.040449354201241294,-7.851103762164712,0.75694068269261605,0.89057258614704837,3.6189898549562494
0.7084,-0.74862809267350905,0.040228092673515903,-7.8299798872321844,0.75877099677015647,0.88951034090548808,3.5934492472650459
0.7088,-0.74880808394256526,0.040008083942571826,-7.8084112014621496,0.76059382536844522,0.88844477231799313,3.5679771400513367
0.7092,-0.74898932455741385,0.039789324557420458,-7.7864041812717915,0.7624090793465137,0.88737599074207174,3.54257525998311
0.7096,-0.74917181099693131,0.039571810996938295,-7.7639653868973255,0.76421667150415462,0.88630410731024656,3.5172453128109908
0.71,-0.74935553967091062,0.039355539670917206,-7.741101510822773,0.7660165165973738,0.88522923387605246,3.4919889828171411
0.7104,-0.74954050692113183,0.039140506921138685,-7.717819320037961,0.76780853135260063,0.88415148295977186,3.4668079322817942
0.7108,-0.74972670902244409,0.038926709022451211,-7.6941256709396839,0.76959263447965254,0.88307096769397053,3.441703800967951
0.7112,-0.74991414218386365,0.038714142183870592,-7.6700275205075741,0.77136874668346733,0.88198780176887959,3.4166782056241267
0.7116,-0.75010280254968675,0.038502802549693738,-7.6455318965017796,0.77313679067460261,0.88090209937769004,3.3917327395057142
