param,Ground Energy,Gap energy,Sec Der of E0/punc,Order param,Binder,Susceptibility
0.65,-0.72573502515002308,0.07573502515002295,4536030.6317175217,0.39835129559324184,0.99160648866468393,9.0603287955296814
0.6504,-0.72570514922524321,0.075305149225242896,-6.0050814431160688,0.40002451805098677,0.99146457426727808,9.0403792969042378
0.6508,-0.72567623411349413,0.074876234113494089,-6.0570803321897984,0.40171030567955401,0.99131978186438396,9.0202855134847386
0.6512,-0.72564828813459836,0.074448288134598695,-6.109479695558548,0.40340873748485961,0.99117204832826655,9.0000456597759193
0.6516,-0.7256213196724538,0.074021319672453401,-6.162276953458786,0.40511989139528437,0.99102130920819587,8.9796579422515421
0.652,-0.7255953371746221,0.0735953371746223,-6.2154692057520151,0.40684384419281022,0.9908674987107452,8.9591205599645853
0.6524,-0.72557034915186336,0.073170349151863379,-6.2690533176064491,0.40858067144237215,0.99071054968031935,8.9384317051899114
0.6528,-0.72554636417763529,0.072746364177635803,-6.323025880381465,0.4103304474193874,0.99055039357995556,8.9175895640996146
0.6532,-0.72552339088754825,0.072323390887548245,-6.3773831725120544,0.41209324503549194,0.9903869604724358,8.8965923174721713
0.6536,-0.72550143797876865,0.071901437978768024,-6.4321211893111467,0.41386913576247247,0.9902201790017543,8.8754381414359855
0.654,-0.72548051420937931,0.071480514209378732,-6.4872356429696083,0.4156581895543825,0.99004997637498682,8.8541252082486377
0.6544,-0.72546062839769276,0.071060628397693115,-6.5427218843251467,0.41746047476786252,0.98987627834460923,8.8326516871120635
0.6548,-0.72544178942150783,0.070641789421508228,-6.5985750108957291,0.41927605808067103,0.98969900919131493,8.811015745024946
0.6552,-0.72542400621732461,0.070224006217324719,-6.6547897346317768,0.42110500440843096,0.98951809170738403,8.7892155476728018
0.6556,-0.7254072877794987,0.06980728777949885,-6.7113604675978422,0.42294737681960709,0.98933344718065919,8.7672492603567598
0.656,-0.72539164315934745,0.069391643159348426,-6.7682812493294477,0.4248032364487192,0.98914499537918754,8.7451150489616598
0.6564,-0.72537708146419611,0.068977081464196233,-6.8255457896739244,0.42667264240784164,0.9889526545365841,8.7228110809643091
0.6568,-0.72536361185637133,0.068563611856371831,-6.8831474371254444,0.42855565169639276,0.98875634133818235,8.7003355264822719
0.6572,-0.72535124355213643,0.068151243552137419,-6.9410791490226984,0.43045231910923765,0.98855597090803671,8.6776865593645063
0.6576,-0.72533998582056525,0.067739985820565174,-6.9993335176259279,0.43236269714314041,0.988351456796844,8.6548623583238502
0.658,-0.72532984798235678,0.067329847982357527,-7.0579027757048607,0.43428683590163192,0.9881427109708506,8.6318611081122256
0.6584,-0.72532083940859238,0.066920839408592836,-7.1167787052690983,0.4362247829982776,0.98792964380182535,8.6086810007392707
0.6588,-0.72531296951942081,0.066512969519421206,-7.1759527437388897,0.43817658345844229,0.98771216405816431,8.5853202367346846
0.6592,-0.72530624778268837,0.06610624778268881,-7.235415892675519,0.44014227961958818,0.98749017889721069,8.5617770264546458
0.6596,-0.72530068371249856,0.065700683712499264,-7.2951587252318859,0.44212191103012316,0.98726359385887141,8.5380495914334524
0.66,-0.72529628686770486,0.065296286867706166,-7.3551714383065701,0.44411551434694202,0.98703231286060467,8.5141361657794565
0.6604,-0.72529306685034134,0.064893066850342684,-7.4154437463730574,0.44612312323163689,0.98679623819387408,8.4900349976171281
0.6608,-0.72529103330397693,0.064491033303977985,-7.4759649392217398,0.4481447682455037,0.98655527052214942,8.4657443505739778
0.6612,-0.72529019591200294,0.064090195912003489,-7.5367238987237215,0.45018047674340611,0.98630930888054746,8.4412625053139081
0.6616,-0.7252905643958526,0.063690564395853744,-7.5977090001106262,0.45223027276658417,0.98605825067720221,8.416587761115828
0.662,-0.72529214851314217,0.063292148513143021,-7.6589082088321447,0.45429417693447283,0.98580199169646299,8.3917184374985112
0.6624,-0.72529495805574518,0.062894958055745631,-7.7203090079128742,0.45637220633566594,0.98554042610401094,8.366652875891031
0.6628,-0.72529900284778948,0.062499002847790641,-7.781898396089673,0.45846437441808324,0.98527344645399884,8.3413894413488983
0.6632,-0.72530429274357744,0.062104292743577982,-7.8436629418283701,0.46057069087846803,0.98500094369830904,8.3159265243156213
0.6636,-0.72531083762543569,0.061710837625436943,-7.9055886939167976,0.46269116155133777,0.98472280719803285,8.2902625424290495
0.664,-0.72531864740148533,0.06131864740148707,-7.9676612466573715,0.46482578829748256,0.98443892473727612,8.2643959423725413
0.6644,-0.72532773200333434,0.060927732003336121,-8.0298656970262527,0.46697456889214489,0.98414918253939521,8.23832520176998
0.6648,-0.72533810138369481,0.060538101383695975,-8.0921866428107023,0.4691374969130267,0.98385346528576567,8.2120488311240383
0.6652,-0.72534976551391828,0.060149765513920483,-8.1546082329005003,0.47131456162823687,0.98355165613719708,8.1855653757971858
0.6656,-0.72536273438145893,0.059762734381459626,-8.2171140499413013,0.47350574788434879,0.98324363675809268,8.1588734180339326
0.666,-0.72537701798724741,0.059377017987249148,-8.2796872518956661,0.47571103599469627,0.98292928734346985,8.1319715790239915
0.6664,-0.72539262634299617,0.058992626342997956,-8.3423104714602232,0.47793040162808348,0.98260848664894229,8.1048585210044113
0.6668,-0.7254095694684205,0.058609569468422551,-8.4049658197909594,0.48016381569805144,0.98228111202377766,8.0775329494001245
0.6672,-0.72542785738837601,0.058227857388377768,-8.4676349554210901,0.48241124425291154,0.98194703944713002,8.0499936150007692
0.6676,-0.72544750012992465,0.057847500129926788,-8.5302990078926086,0.4846726483666588,0.98160614356756171,8.0222393161724881
0.668,-0.72546850771931448,0.057468507719316664,-8.5929386299103498,0.48694798403100176,0.98125829774595497,7.9942689011033021
0.6684,-0.72549089017888491,0.057090890178886466,-8.6555339656770229,0.48923720204869692,0.98090337410191264,7.9660812700792061
0.6688,-0.72551465752388988,0.056714657523891265,-8.7180646769702435,0.49154024792832457,0.98054124356376005,7.9376753777899731
0.6692,-0.7255398197592432,0.056339819759244958,-8.7805099505931139,0.4938570617807812,0.98017177592223448,7.9090502356616605
0.6696,-0.72556638687618846,0.055966386876190377,-8.8428484741598368,0.49618757821762799,0.97979483988796923,7.8802049142139898
0.67,-0.72559436884888995,0.055594368848891795,-8.9050584603101015,0.49853172625156861,0.97941030315285271,7.8511385454394373
0.6704,-0.72562377563094504,0.055223775630947269,-8.9671176802366972,0.50088942919919999,0.97901803245536556,7.8218503252021314
0.6708,-0.725654617151829,0.054854617151831042,-9.029003394767642,0.50326060458633626,0.97861789364996277,7.7923395156526203
0.6712,-0.72568690331325614,0.054486903313258117,-9.0906924586743116,0.50564516405605098,0.97820975178059777,7.7626054476566111
0.6716,-0.72572064398547653,0.05412064398547789,-9.1521612349897623,0.50804301327973256,0.97779347115844573,7.7326475232334113
0.672,-0.72575584900349444,0.053755849003496836,-9.2133856918662786,0.51045405187132498,0.9773689154439088,7.7024652180015458
0.6724,-0.72579252816322293,0.053392528163225594,-9.2743413560092449,0.51287817330505669,0.97693594773294834,7.6720580836271415
0.6728,-0.7258306912175686,0.053030691217570758,-9.3350033406168222,0.51531526483681156,0.97649443064781516,7.6414257502722647
0.6732,-0.72587034787244853,0.052670347872451506,-9.3953463416546583,0.51776520742947074,0.97604422643220567,7.6105679290383739
0.6736,-0.72591150778274327,0.052311507782746514,-9.4553447272628546,0.52022787568238549,0.97558519705089819,7.579484414401664
0.674,-0.72595418054819416,0.051954180548196782,-9.5149724073708057,0.522703137765269,0.97511720429388715,7.548175086635613
0.6744,-0.72599837570923054,0.051598375709231425,-9.5742030367255211,0.52519085535675447,0.97464010988503513,7.5166399142163396
0.6748,-0.72604410274275255,0.051244102742754372,-9.6330098398029804,0.5276908835878199,0.97415377559525684,7.4848789562065141
0.6752,-0.72609137105784904,0.050891371057851797,-9.6913657821714878,0.53020307099035935,0.97365806336022798,7.4528923646130893
0.6756,-0.72614018999147079,0.050540189991473139,-9.7492435202002525,0.53272725945112809,0.97315283540260467,7.4206803867138067
0.676,-0.72619056880405553,0.050190568804058366,-9.8066153917461634,0.53526328417127556,0.97263795435873435,7.3882433673480445
0.6764,-0.72624251667510276,0.049842516675105308,-9.8634535353630781,0.53781097363175512,0.97211328340980796,7.3555817511662438
0.6768,-0.72629604269871562,0.049496042698718545,-9.9197298046201468,0.54037014956477591,0.97157868641741507,7.3226960848336349
0.6772,-0.72635115587909727,0.049151155879100128,-9.9754158649593592,0.54294062693155887,0.9710340280634272,7.289587019182175
0.6776,-0.72640786512601729,0.048807865126020089,-10.030483186244965,0.54552221390661459,0.97047917399413475,7.2562553113060657
0.678,-0.72646617925024726,0.048466179250249874,-10.084903078153729,0.54811471186876382,0.96991399096853614,7.2227018265946468
0.6784,-0.72652610695896935,0.048126106958971571,-10.138646699488163,0.55071791539905868,0.96933834701068411,7.1889275406981392
0.6788,-0.72658765685116344,0.047787656851166926,-10.191685128957033,0.55333161228588723,0.96875211156594498,7.1549335414197417
0.6792,-0.72665083741297809,0.047450837412980618,-10.243989324197173,0.55595558353735564,0.96815515566104871,7.1207210305292703
0.6796,-0.7267156570130846,0.047115657013087398,-10.295530237257481,0.55858960340122477,0.96754735206775544,7.0862913254921152
0.68,-0.72678212389802899,0.046782123898032157,-10.346278740093112,0.5612334393924967,0.96692857546997635,7.0516458611083799
0.6804,-0.72685024618757199,0.046450246187575761,-10.39620577916503,0.56388685232882185,0.96629870263415918,7.0167861910565419
0.6808,-0.72692003187003973,0.046120031870043321,-10.445282284170389,0.56654959637393043,0.96565761258271621,6.9817139893357325
0.6812,-0.72699148879767284,0.045791488797675584,-10.493479292839766,0.56922141908914337,0.96500518677028924,6.9464310516015715
0.6816,-0.72706462468199262,0.045464624681995747,-10.540767934173346,0.57190206149314982,0.96434130926259343,6.9109392963896861
0.682,-0.72713944708918188,0.045139447089184936,-10.587119461968541,0.57459125813007794,0.96366586691759926,6.8752407662221069
0.6824,-0.72721596343548511,0.044815963435488881,-10.632505344226956,0.57728873714606144,0.96297874956875429,6.839337628590501
0.6828,-0.72729418098264331,0.04449418098264657,-10.676897212862968,0.57999422037425763,0.96227985020997631,6.8032321768119726
0.6832,-0.72737410683335579,0.044174106833358984,-10.720266973599792,0.5827074234284636,0.9615690651820914,6.7669268307516806
0.6836,-0.7274557479267838,0.043855747926787481,-10.762586792930961,0.5854280558053121,0.96084629436040514,6.7304241374079963
0.684,-0.72753911103409874,0.043539111034102462,-10.803829148411751,0.5881558209951,0.9601114413430607,6.6937267713553421
0.6844,-0.72762420275407735,0.043224202754080565,-10.843966903164983,0.59089041660125985,0.95936441363982738,6.6568375350402498
0.6848,-0.72771102950876043,0.042911029508763798,-10.88297326490283,0.59363153446841943,0.958605122860957,6.6197593589262684
0.6852,-0.72779959753916601,0.042599597539169753,-10.920821867883205,0.59637886081904867,0.95783348490572484,6.5824953014845828
0.6856,-0.72788991290107075,0.042289912901074089,-10.957486862316728,0.59913207639863864,0.9570494201502503,6.5450485490253945
0.686,-0.72798198146087334,0.041981981460876838,-10.992942806333303,0.60189085662930464,0.95625285363420609,6.5074224153678033
0.6864,-0.7280758088915249,0.041675808891528887,-11.027164872735739,0.60465487177176669,0.95544371524597971,6.4696203413442515
0.6868,-0.7281714006685559,0.041371400668558822,-11.060128742828965,0.60742378709551748,0.95462193990588462,6.431645894137735
0.6872,-0.72826876206618596,0.041068762066189812,-11.091810736805201,0.61019726305713917,0.95378746774695133,6.3935027664479787
0.6876,-0.72836789815353398,0.040767898153538096,-11.122187802568078,0.61297495548650305,0.95294024429289215,6.3551947754861153
0.688,-0.72846881379093043,0.0404688137909337,-11.151237573474646,0.6157565157807704,0.95208022063275533,6.3167258617946169
0.6884,-0.72857151362633843,0.040171513626342858,-11.17893835529685,0.61854159110588791,0.95120735359185116,6.2781000878927813
0.6888,-0.72867600209188332,0.039876002091887797,-11.205269239842892,0.6213298246054626,0.95032160589845893,6.239321636745407
0.6892,-0.72878228340050655,0.039582283400510287,-11.230210080742836,0.62412085561669939,0.9494229463458792,6.2003948100550916
0.6896,-0.72889036154274278,0.039290361542746122,-11.253741513937712,0.62691431989317137,0.94851134994936603,6.1613240263778968
0.69,-0.72900024028362131,0.039000240283625587,-11.275845041498542,0.62970984983411538,0.94758679809748658,6.1221138190627409
0.6904,-0.72911192315970652,0.03871192315971006,-11.296503026038408,0.63250707471998435,0.94664927869745008,6.0827688340153525
0.6908,-0.7292254134762759,0.038425413476280257,-11.315698714926839,0.63530562095390175,0.94569878631396753,6.043293827288152
0.6912,-0.72934071430463987,0.038140714304644607,-11.333416292443871,0.63810511230871592,0.94473532230119095,6.0036936624976622
0.6916,-0.72945782847961049,0.037857828479614941,-11.349640883505344,0.64090517017924253,0.94375889492731979,5.9639733080720578
0.692,-0.72957675859712268,0.037576758597127058,-11.36435860209167,0.6437054138393965,0.9427695194914304,5.9241378343308959
0.6924,-0.72969750701201108,0.037297507012015729,-11.377556541934609,0.64650546070375481,0.94176721843214539,5.8841924104009191
0.6928,-0.72982007583594621,0.037020075835950905,-11.389222841709852,0.6493049265932137,0.94075202142772507,5.8441423009706863
0.6932,-0.72994446693553605,0.036744466935540232,-11.399346651509404,0.65210342600424998,0.93972396548723136,5.8039928628890083
0.6936,-0.73007068193058977,0.036470681930594107,-11.407918211072683,0.65490057238143307,0.93868309503237857,5.7637495416108813
0.694,-0.73019872219255766,0.036198722192562038,-11.414928831160069,0.65769597839268512,0.9376294619697555,5.7234178674965834
0.6944,-0.73032858884313823,0.035928588843142539,-11.42037090472877,0.660489256206921,0.93656312575306455,5.6830034519680588
0.6948,-0.73046028275306341,0.035660282753067984,-11.424237934872508,0.6632800177734931,0.93548415343513269,5.6425119835301949
0.6952,-0.73059380454105838,0.035393804541063334,-11.426524564623833,0.66606787510308541,0.93439261970937992,5.6019492236617436
0.6956,-0.73072915457298371,0.035129154572988375,-11.427226545289159,0.66885244054953485,0.93328860694051297,5.5613210025827193
0.696,-0.73086633296115644,0.034866332961161484,-11.426340766251087,0.67163332709211165,0.93217220518423038,5.5206332149055832
0.6964,-0.73100533956385172,0.034605339563855253,-11.423865290358663,0.67441014861777837,0.93104351219574311,5.4798918151772593
0.6968,-0.73114617398499326,0.034346173984998174,-11.419799283146858,0.67718252020295566,0.9299026334269479,5.4391028133195194
0.6972,-0.73128883557402025,0.034088835574024867,-11.414143113419414,0.67995005839430767,0.92874968201212471,5.3982722699757106
0.6976,-0.73143332342594547,0.03383332342595069,-11.406898250803351,0.68271238148807323,0.92758477874205603,5.3574062917720884
0.698,-0.73157963638159085,0.033579636381595224,-11.398067370057106,0.68546910980746645,0.92640805202649856,5.3165110265019146
0.6984,-0.7317277730280155,0.033327773028021257,-11.387654246762395,0.68821986597766127,0.92521963784497885,5.2755926582414814
0.6988,-0.73187773169911974,0.033077731699124202,-11.375663828104734,0.69096427519793302,0.92401967968589138,5.2346574024061052
0.6992,-0.73202951047643616,0.032829510476441448,-11.362102188169956,0.6937019655104335,0.92280832847395844,5.1937115007562227
0.6996,-0.73218310719010282,0.032583107190107929,-11.346976511180401,0.6964325680652339,0.92158574248607683,5.1527612163614425
0.7,-0.73233851942001138,0.032338519420015754,-11.330295147374272,0.69915571738108884,0.92035208725569617,5.1118128285333819
0.7004,-0.73249574449714328,0.032095744497148249,-11.312067475169897,0.70187105160162311,0.9191075354657996,5.0708726277347749
0.7008,-0.73265477950507141,0.031854779505077424,-11.292304031550884,0.70457821274639187,0.91785226683071042,5.0299469104762045
0.7012,-0.73281562128164446,0.031615621281649409,-11.27101637981832,0.7072768469565015,0.9165864679668746,4.9890419742083711
0.7016,-0.7329782664208383,0.031378266420844292,-11.248217152431607,0.70996660473437256,0.91531033225286762,4.9481641122201427
0.702,-0.73314271127477626,0.031142711274781743,-11.22392001748085,0.71264714117727646,0.91402405967887312,4.9073196085512922
0.7024,-0.73330895195591739,0.030908951955922914,-11.198139658197761,0.71531811620426999,0.9127278566859367,4.8665147329297298
0.7028,-0.73347698433940367,0.030676984339409685,-11.170891733840108,0.71797919477622452,0.91142193599529364,4.8257557357419056
0.7032,-0.73364680406556737,0.030446804065572763,-11.142192864790559,0.72063004710861256,0.91010651642812435,4.7850488430456402
0.7036,-0.73381840654258956,0.030218406542595444,-11.112060658633709,0.72327034887674324,0.90878182271611307,4.744400251634449
0.704,-0.73399178694931688,0.029991786949322363,-11.080513557419181,0.72589978141319922,0.90744808530319565,4.7038161241617678
0.7044,-0.73416694023821349,0.029766940238219686,-11.047570941969752,0.72851803189717168,0.90610554013892874,4.6633025843337919
0.7048,-0.73434386113846073,0.029543861138467076,-11.01325304992497,0.73112479353547677,0.90475442846392418,4.6228657121792907
0.7052,-0.73452254415919604,0.029322544159200992,-10.977580890059471,0.73371976573508935,0.90339499658778333,4.5825115394037743
0.7056,-0.73470298359287367,0.029102983592879439,-10.940576318651438,0.73630265426689256,0.90202749566006091,4.5422460448366282
0.706,-0.73488517351876226,0.028885173518767959,-10.902261910960078,0.73887317142057207,0.90065218143471371,4.5020751499778529
0.7064,-0.73506910780655677,0.028669107806562955,-10.862661009654403,0.74143103615043937,0.89926931402857979,4.4620047146520729
0.7068,-0.73525478012011269,0.028454780120118928,-10.821797585114837,0.74397597421213491,0.89787915767437265,4.4220405327755463
0.7072,-0.73544218392128224,0.028242183921287967,-10.779696315526962,0.74650771828999374,0.89648198046879035,4.3821883282441938
0.7076,-0.73563131247386238,0.028031312473868586,-10.736382497474551,0.74902600811511832,0.89507805411621677,4.3424537509467473
0.708,-0.73582215884764202,0.02782215884764816,-10.691881952807307,0.75153059057401717,0.89366765366861578,4.3028423729100096
0.7084,-0.73601471592253398,0.027614715922540278,-10.64622113481164,0.75402121980778725,0.89225105726216192,4.263359684580827
0.7088,-0.73620897639280769,0.027408976392813589,-10.599426941946149,0.75649765730186846,0.89082854585115112,4.2240110912493138
0.7092,-0.73640493277139196,0.02720493277139846,-10.551526764407754,0.75895967196631109,0.88940040293979039,4.1848019096186517
0.7096,-0.73660257739425872,0.027002577394265259,-10.502548454329371,0.76140704020666228,0.88796691431237285,4.1457373645238622
0.71,-0.73680190242487809,0.026801902424884894,-10.45252020843327,0.76383954598542292,0.88652836776246158,4.1068225858049381
0.7104,-0.7370028998587308,0.026602899858736317,-10.401470642536879,0.76625698087425853,0.88508505282156069,4.0680626053354239
0.7108,-0.73720556152788619,0.026405561527892418,-10.349428651854396,0.76865914409693581,0.88363726048788982,4.0294623542110068
0.7112,-0.73740987910562605,0.026209879105632328,-10.296423440799117,0.77104584256319963,0.88218528295573095,3.9910266600985103
0.7116,-0.73761584411111636,0.026015844111122788,-10.242484476417303,0.77341689089361176,0.88072941334593768,3.9527602447487835
